frequency,raw
20.0,3.5687972932228225
20.144928,3.5806579486068824
20.290907,3.5921475118168518
20.437943,3.6032682586015357
20.586045,3.614022693690975
20.73522,3.6244131657038654
20.885476,3.6344420933913044
21.03682,3.6441118269081
21.189262,3.653424901404455
21.342808,3.6623835975864596
21.497467,3.6709903771905528
21.653246,3.679247584923479
21.810155,3.6871577210449638
21.9682,3.694723077466962
22.127391,3.7019461419434485
22.287735,3.7088292572160806
22.449241,3.7153748549050065
22.611917,3.721585321243621
22.775773,3.727463113672009
22.940815,3.7330105439519197
23.107054,3.738230096112198
23.274497,3.7431241188428106
23.443154,3.7476950516601732
23.613033,3.751945273934375
23.784142,3.7558771701986813
23.956492,3.75949319042571
24.130091,3.7627957128827085
24.304947,3.765787122515926
24.481071,3.7684698540740187
24.658471,3.7708462900839637
24.837156,3.7729188316926856
25.017137,3.7746898990616473
25.198421,3.776161871185628
25.381019,3.777337165239975
25.56494,3.778218179811002
25.750195,3.7788073214778333
25.936791,3.779106984607948
26.12474,3.7791195766019516
26.31405,3.7788474999091504
26.504733,3.778293153341722
26.696797,3.7774589439802573
26.890253,3.7763472710590196
27.085111,3.7749605366709313
27.281381,3.77330114406975
27.479073,3.7713714981191653
27.678198,3.769173994050488
27.878765,3.766711050383136
28.080786,3.763985051128423
28.284271,3.760998404584208
28.489231,3.7577535064334167
28.695675,3.754252786995813
28.903616,3.7504986110377634
29.113064,3.7464933941539
29.324029,3.742239557185596
29.536523,3.7377394830450017
29.750557,3.7329955750765786
29.966142,3.7280102388552376
30.183289,3.7227858825493056
30.402009,3.7173249172567444
30.622315,3.711629704746848
30.844217,3.7057026849348405
31.067726,3.6995462771487966
31.292856,3.6931628186265666
31.519617,3.686554759786715
31.748021,3.6797244984783433
31.97808,3.6726744346339903
32.209807,3.6654069389199577
32.443212,3.6579244792418057
32.678309,3.650229399789593
32.91511,3.6423241102760793
33.153626,3.634211058503532
33.393871,3.6258925939059097
33.635857,3.6173711363745173
33.879596,3.608649110321916
34.125101,3.5997289082438413
34.372386,3.5906128882590913
34.621462,3.581303522412799
34.872344,3.5718031376433057
35.125043,3.562114214959828
35.379574,3.5522390868269023
35.635949,3.542180204579421
35.894182,3.5319399458435488
36.154286,3.5215207313517474
36.416274,3.510924986518415
36.680162,3.5001550185932406
36.945961,3.489213342289646
37.213687,3.4781022719222547
37.483353,3.46682424915368
37.754973,3.4553816788707805
38.028561,3.4437769703566783
38.304131,3.43201253744984
38.581699,3.4200907125306776
38.861278,3.4080139608289954
39.142882,3.3957847100129945
39.426528,3.383405261580128
39.712229,3.3708780955803146
40.0,3.3582056099570075
40.289856,3.345390207329844
40.581813,3.3324342506751927
40.875886,3.3193401519146737
41.172089,3.3061103727925474
41.470439,3.2927472461513947
41.770951,3.279253199036725
42.073641,3.2656306187738333
42.378524,3.2518819428381343
42.685616,3.2380095689177937
42.994934,3.2240158545906583
43.306493,3.2099032531134655
43.620309,3.195674177906676
43.9364,3.181330956952111
44.254781,3.1668760596764916
44.57547,3.152311824785123
44.898482,3.1376407326742655
45.223835,3.122865132996793
45.551545,3.1079874717644684
45.881631,3.093010064393078
46.214108,3.077935413449995
46.548994,3.062765890979339
46.886308,3.0475038295874275
47.226065,3.03215174858787
47.568285,3.0167119469507533
47.912984,3.001188208699659
48.260181,2.985589382762532
48.609894,2.969925667691142
48.962142,2.9542072233047816
49.316942,2.93844430457559
49.674312,2.9226471271028416
50.034273,2.906825780289947
50.396842,2.8909905361217323
50.762038,2.875151584010158
51.129881,2.859319076439687
51.500389,2.84350325812432
51.873582,2.827714293661178
52.24948,2.8119623545415835
52.628101,2.7962577015633814
53.009466,2.7806104760784605
53.393594,2.7650309081486
53.780506,2.7495291522174146
54.170222,2.734115409695122
54.562762,2.718799887338169
54.958146,2.703592796840676
55.356395,2.6885043167879865
55.757531,2.6735445951770656
56.161573,2.658723897649693
56.568542,2.6440524190330037
56.978461,2.6295402891096824
57.391351,2.6151977164695346
57.807232,2.6010349477026136
58.226127,2.5870621312840854
58.648058,2.5732894567588254
59.073046,2.559727150716237
59.501113,2.546385410910947
59.932283,2.5332743793498
60.366577,2.520404295702271
60.804018,2.5077853427643637
61.244629,2.4954277089917967
61.688433,2.483341587906789
62.135453,2.4715371774659047
62.585712,2.460024679390849
63.039234,2.4488142741739316
63.496042,2.437916171521966
63.956161,2.427340537670398
64.419613,2.4170976117490186
64.886424,2.407197546367991
65.356618,2.397650543922612
65.830219,2.388466808949613
66.307252,2.3796565292948126
66.787742,2.371229897006109
67.271713,2.363197123662134
67.759192,2.3555683740903426
68.250203,2.3483538651114335
68.744772,2.3415637840663943
69.242925,2.335208322119958
69.744688,2.3292976733944695
70.250086,2.3238420443757044
70.759147,2.3188516107940176
71.271897,2.314336573153555
71.788363,2.310307123918493
72.308571,2.306773464150914
72.832549,2.3037457816515547
73.360323,2.301234277133877
73.891923,2.2992429071720317
74.427374,2.2977507441352936
74.966705,2.296730618423812
75.509945,2.2961553644990014
76.057121,2.2959978193046964
76.608262,2.296230817265683
77.163398,2.296827195273139
77.722555,2.297759784917907
78.285765,2.2990014256087714
78.853056,2.300524950259219
79.424458,2.3023031951531014
80.0,2.304308992808178
80.579713,2.3065151818025513
81.163627,2.3088945967694365
81.751772,2.3114200710930364
82.344179,2.3140644413865172
82.940879,2.3168005434476595
83.541903,2.3196012120336493
84.147282,2.322439280794776
84.757048,2.325287587008715
85.371232,2.328118962268892
85.989867,2.3309062463764074
86.612985,2.3336222733669207
87.240619,2.3362398805073354
87.8728,2.3387318959973276
88.509563,2.341071163139221
89.150939,2.3432305092566943
89.796964,2.3451827781547263
90.44767,2.346900799471587
91.103091,2.348357409001106
91.763261,2.349525442092864
92.428216,2.350377736295244
93.097989,2.3508871242505354
93.772615,2.351026442036753
94.45213,2.3507685251255497
95.136569,2.3500862086226375
95.825968,2.3489523272202883
96.520362,2.347339718098313
97.219789,2.345221211809958
97.924283,2.342569651277974
98.633883,2.3393578636029226
99.348625,2.335558687480887
100.068546,2.33114495995967
100.793684,2.326089513586175
101.524077,2.320365181559996
102.259762,2.3139448080432414
103.000778,2.3068012237142588
103.747164,2.2989072599715015
104.498959,2.2902357501583697
105.256202,2.2807595308968684
106.018931,2.270451457546126
106.787188,2.2592843356319854
107.561012,2.2472310143815717
108.340444,2.234264318049812
109.125523,2.220357109895088
109.916292,2.205482188585079
110.712791,2.1896124111350557
111.515061,2.1727206248754203
112.323145,2.1547796408737026
113.137085,2.1357712289074877
113.956923,2.115712898706136
114.782702,2.0946310767704257
115.614465,2.072552196903259
116.452255,2.049502701857936
117.296116,2.025509015902108
118.146092,2.000597571527656
119.002227,1.974794810946112
119.864566,1.948127156079378
120.733154,1.9206210380756163
121.608036,1.8923028986414119
122.489258,1.8631991578353755
123.376866,1.833336245965601
124.270906,1.8027406047502261
125.171424,1.7714386882866455
126.078468,1.7394568928440455
126.992084,1.7068216967978063
127.912321,1.6735594841372115
128.839227,1.6396966860332847
129.772849,1.6052597836722997
130.713236,1.570275198327275
131.660438,1.5347693264222273
132.614504,1.4987686146857255
133.575483,1.4622995238764884
134.543426,1.425388452627674
135.518384,1.3880618128989084
136.500406,1.3503461074623975
137.489544,1.312267738398031
138.48585,1.2738531217809825
139.489375,1.2351287266496078
140.500173,1.1961209208230739
141.518295,1.1568562025208402
142.543795,1.1173609689434139
143.576726,1.0776616706768358
144.617142,1.037784734688036
145.665098,0.9977565647543429
146.720647,0.9576036559846085
147.783845,0.917352403998672
148.854748,0.8770292200983149
149.933411,0.8366605684294542
151.01989,0.7962728902968864
152.114242,0.7558926049338802
153.216525,0.7155461104694383
154.326795,0.6752598934396452
155.445111,0.6350603460290212
156.57153,0.5949739476520562
157.706112,0.555027085516347
158.848915,0.5152462327575323
160.0,0.47565777272297194
161.159426,0.43628817324970504
162.327254,0.39716384831811946
163.503544,0.3583112601021844
164.688358,0.3197568187173463
165.881758,0.28152694973549486
167.083805,0.24364812446439232
168.294563,0.2061467333318774
169.514095,0.16904921350582913
170.742464,0.1323820154411218
171.979734,0.09617157263436443
173.22597,0.06044430326761378
174.481237,0.025221616897441484
175.7456,-0.009495155268468003
177.019125,-0.04370971984573724
178.301879,-0.07742579682180473
179.593928,-0.11064706713583936
180.895339,-0.14337722652381615
182.206182,-0.1756200325852966
183.526523,-0.207379131402909
184.856431,-0.23865823234125463
186.195977,-0.2694610784988354
187.54523,-0.29979135390786327
188.90426,-0.3296527550565632
190.273138,-0.35904898951815123
191.651936,-0.3879837746560332
193.040725,-0.41646079586707874
194.439578,-0.44448376951009894
195.848567,-0.47205638133929695
197.267766,-0.4991823465896066
198.69725,-0.5258653881234789
200.137092,-0.5521091813571858
201.587368,-0.5779174476063489
203.048153,-0.6032938800854607
204.519524,-0.6282421973476612
206.001557,-0.6527660911979867
207.494329,-0.6768692616722223
208.997918,-0.700555416056131
210.512403,-0.7238282679630618
212.037863,-0.7466915216669441
213.574377,-0.7691488731328046
215.122025,-0.7912040250663182
216.680888,-0.8128606860686405
218.251047,-0.8341225564753492
219.832584,-0.8549933423470424
221.425581,-0.8754767420175781
223.030122,-0.8955764717509268
224.64629,-0.9152962272782675
226.27417,-0.934639721512473
227.913846,-0.953610648052181
229.565404,-0.9722127169592464
231.228929,-0.9904496201534182
232.904509,-1.0083250758497686
234.592231,-1.0258427841035125
236.292183,-1.0430064490334183
238.004454,-1.0598197782535295
239.729132,-1.076286463515476
241.466308,-1.0924102194510796
243.216073,-1.1081947537491534
244.978517,-1.1236437593563606
246.753732,-1.1387609416862932
248.541811,-1.1535500087448882
250.342848,-1.168014670702573
252.156935,-1.182158616454053
253.984168,-1.1959855613835726
255.824642,-1.2094992073881021
257.678453,-1.2227032587729731
259.545697,-1.2356014150741992
261.426473,-1.2481973915319333
263.320877,-1.2604948783474188
265.229008,-1.2724975815600996
267.150967,-1.2842092147014998
269.086853,-1.2956328837158422
271.036767,-1.3067693401710185
273.000811,-1.3176187464193372
274.979088,-1.3281812659380758
276.9717,-1.3384570529390512
278.978751,-1.34844626857735
281.000346,-1.3581490750826775
283.03659,-1.3675656309847173
285.08759,-1.3766961004807357
287.153452,-1.3855406397660932
289.234284,-1.3940994105982618
291.330195,-1.402372575379744
293.441294,-1.410360293262857
295.56769,-1.418062720771075
297.709496,-1.4254800259369171
299.866821,-1.4326123599363043
302.03978,-1.4394598915564623
304.228485,-1.44602277687912
306.43305,-1.4523011760375328
308.65359,-1.4582952496785522
310.890221,-1.464005158819755
313.14306,-1.4694310647169346
315.412224,-1.47457312654602
317.697831,-1.4794315040436068
320.0,-1.4840063573838924
322.318852,-1.4882978488482563
324.654507,-1.4923061371040576
327.007088,-1.496031384516522
329.376716,-1.4994737488042127
331.763515,-1.5026333911985867
334.16761,-1.5055104728068969
336.589127,-1.5081051545490856
339.02819,-1.5104175944409124
341.484928,-1.5124479547206287
343.959469,-1.5141963954907567
346.451941,-1.5156630764034231
348.962474,-1.516848158021294
351.4912,-1.5177518011920634
354.038251,-1.518374166077754
356.603758,-1.5187154126189228
359.187855,-1.518775701478262
361.790679,-1.518555192919771
364.412363,-1.5180540474485102
367.053045,-1.5172724253078569
369.712863,-1.5162104866335555
372.391955,-1.5148683919782149
375.09046,-1.5132463021662423
377.808521,-1.511344376046025
380.546277,-1.5091627758052462
383.303872,-1.5067016609360697
386.08145,-1.503961191512915
388.879155,-1.5009415286951666
391.697134,-1.497642831564301
394.535533,-1.4940652614723622
397.3945,-1.490208978793368
400.274184,-1.486074143997075
403.174736,-1.4816609161284062
406.096306,-1.476969457377494
409.039048,-1.4719999253153522
412.003113,-1.4667524843912783
414.988657,-1.4612281917116716
417.995836,-1.4554317030359711
421.024807,-1.4493685735135433
424.075726,-1.4430443627411225
427.148753,-1.4364646246291854
430.244049,-1.4296349131672452
433.361775,-1.4225607848161606
436.502093,-1.4152477965311283
439.665167,-1.407701503405724
442.851162,-1.399927460927059
446.060244,-1.3919312250519953
449.292581,-1.3837183497140366
452.54834,-1.3752943944927456
455.827692,-1.3666649118649288
459.130807,-1.3578354600953864
462.457858,-1.3488115927914823
465.809019,-1.3395988641246224
469.184463,-1.3302028345157642
472.584367,-1.3206290568685466
476.008908,-1.3108830876028472
479.458265,-1.300970481100854
482.932617,-1.290896795463875
486.432146,-1.2806675838931734
489.957033,-1.2702884063453757
493.507464,-1.259764811953645
497.083623,-1.2491023596513307
500.685695,-1.2383066094749933
504.31387,-1.2273831105265522
507.968337,-1.2163374189449803
511.649285,-1.2051750950468079
515.356906,-1.1939016942709069
519.091395,-1.1825227671376366
522.852945,-1.1710438745180027
526.641753,-1.159470569396606
530.458016,-1.1478084090925558
534.301934,-1.136062946132962
538.173706,-1.1242397405062714
542.073534,-1.1123443474667611
546.001623,-1.1003823175896423
549.958175,-1.0883592150714696
553.943399,-1.0762805873294128
557.957501,-1.064151995435044
562.000691,-1.0519789928936052
566.07318,-1.0397671347884148
570.17518,-1.0275219777870295
574.306904,-1.0152490801361587
578.468569,-1.0029539928078062
582.66039,-0.9906422773092071
586.882588,-0.9783194821236295
591.135381,-0.9659911691668895
595.418991,-0.9536628932872394
599.733643,-0.9413402053900516
604.07956,-0.9290286667438384
608.45697,-0.916733829009989
612.8661,-0.9044612513121998
617.30718,-0.892216488955239
621.780442,-0.8800050963482925
626.28612,-0.8678326270869704
630.824447,-0.8557046420103601
635.395661,-0.8436250542506742
640.0,-0.8315912262926856
644.637704,-0.8195988810653979
649.309014,-0.8076437433761218
654.014175,-0.7957215322862232
658.753431,-0.7838279739072879
663.52703,-0.7719587887277171
668.335221,-0.7601096992587897
673.178253,-0.7482764324086066
678.05638,-0.7364547072680925
682.969856,-0.724640247429577
687.918938,-0.7128287737096924
692.903882,-0.7010160137253277
697.924949,-0.6891976876196136
702.982401,-0.6773695176662154
708.076501,-0.6655272282303737
713.207515,-0.6536665411309278
718.375711,-0.6417831780357544
723.581357,-0.6298728650590615
728.824726,-0.6179313213288495
734.106091,-0.6059542704880909
739.425726,-0.5939374383758236
744.78391,-0.5818765440361681
750.180921,-0.5697673133061164
755.617041,-0.5576054675723067
761.092554,-0.5453867283243675
766.607744,-0.5331068216307623
772.1629,-0.5207614670254498
777.75831,-0.5083463909016217
783.394268,-0.49585731099300445
789.071066,-0.4832899541575545
794.789,-0.4706400431014358
800.548368,-0.4579033008524154
806.349472,-0.44507544637114427
812.192613,-0.4321522056401711
818.078095,-0.4191293028555607
824.006226,-0.40600245824756154
829.977315,-0.39276739475081224
835.991673,-0.379419835831193
842.049613,-0.36595550552652545
848.151452,-0.35237012403276713
854.297507,-0.3386594166362672
860.488099,-0.32481910485039867
866.72355,-0.3108449131426684
873.004186,-0.2967325622599335
879.330334,-0.2824777759853193
885.702324,-0.26807627669291256
892.120489,-0.25352378536526765
898.585161,-0.2388160307241767
905.09668,-0.2239487288224217
911.655384,-0.20891760581270233
918.261614,-0.19371838665297633
924.915716,-0.17834679049798577
931.618037,-0.1627985399185978
938.368925,-0.14706936101499393
945.168733,-0.13115497415666008
952.017816,-0.11505110096514323
958.916529,-0.0987534691215802
965.865234,-0.08225779590078783
972.864291,-0.06555980948415119
979.914067,-0.048655227644306354
987.014928,-0.03153977685564885
994.167245,-0.014209177992193761
1001.371391,0.0033408464466436194
1008.627741,0.021114572244715857
1015.936673,0.03911627584285203
1023.298569,0.05735023679160893
1030.713812,0.07582073029634395
1038.18279,0.09453203709187465
1045.70589,0.11348842838979664
1053.283506,0.13269418588301568
1060.916032,0.15215358410414223
1068.603867,0.17187090302082614
1076.347412,0.19185042038193456
1084.147069,0.21209640899235224
1092.003245,0.23261314698493624
1099.916351,0.25340491529264686
1107.886798,0.2744759870710075
1115.915003,0.29583064340885734
1124.001383,0.3174731574085863
1132.14636,0.339407807385084
1140.350359,0.3616388715328868
1148.613808,0.3841706278615991
1156.937137,0.4070073513762187
1165.320781,0.43015332222907143
1173.765175,0.45361281188463387
1182.270762,0.4773901052164262
1190.837983,0.5014894726464192
1199.467286,0.5259151951789298
1208.15912,0.550671547524836
1216.913939,0.5757628093358167
1225.732199,0.6011932566125883
1234.61436,0.6269671673425204
1243.560885,0.6530888185628272
1252.572239,0.6795624833127755
1261.648894,0.7063924452635484
1270.791322,0.7335829780915081
1280.0,0.7611383601018579
1289.275408,0.7890628682573001
1298.618029,0.8173607780605391
1308.02835,0.8460363664896764
1317.506863,0.8750939150403909
1327.054061,0.904537697409312
1336.670442,0.934371991625337
1346.356507,0.964601073838868
1356.112761,0.9952292213321654
1365.939713,1.0262607124698178
1375.837875,1.0576998234602863
1385.807763,1.0895508314109863
1395.849898,1.121818017490549
1405.964802,1.154505653993906
1416.153002,1.187618017035349
1426.415031,1.2211593898473652
1436.751422,1.2551340431133828
1447.162715,1.2895462577225414
1457.649452,1.324400308299048
1468.212181,1.359700476337034
1478.851452,1.395451036816164
1489.567819,1.431656264700246
1500.361842,1.4683204416515006
1511.234082,1.5054573469194688
1522.185107,1.5431188014037196
1533.215488,1.5813661301976358
1544.325799,1.6202606544146592
1555.516621,1.659863705093507
1566.788535,1.700236598447332
1578.142131,1.7414406676808978
1589.577999,1.7835372306842734
1601.096737,1.8265876189112853
1612.698944,1.870653151534901
1624.385225,1.9157951537742643
1636.15619,1.962074953324731
1648.012452,2.009553872382066
1659.95463,2.058293239346524
1671.983345,2.1083543724893934
1684.099226,2.1597986045162325
1696.302903,2.212687253277598
1708.595013,2.2670816468713824
1720.976197,2.3230431108984195
1733.4471,2.3806329680288507
1746.008372,2.4399125422869306
1758.660669,2.500943163918962
1771.404649,2.5637861499778465
1784.240977,2.628502828134195
1797.170323,2.695154527298662
1810.19336,2.7638025669025668
1823.310767,2.834508271967617
1836.523229,2.9073329735663695
1849.831433,2.9823379865033215
1863.236074,3.059584642204854
1876.737851,3.1391058954339917
1890.337467,3.220821209953397
1904.035631,3.304621683524048
1917.833058,3.39039841933982
1931.730467,3.478042513458805
1945.728583,3.567445066883275
1959.828134,3.658497166133689
1974.029857,3.751089921595308
1988.334491,3.845114422150108
2002.742782,3.9404617672663256
2017.255482,4.037023060447782
2031.873347,4.134689395635008
2046.597138,4.233351863466764
2061.427625,4.332901577904724
2076.365579,4.433229622321447
2091.41178,4.5342271028838015
2106.567012,4.635785114722784
2121.832065,4.737794755093665
2137.207735,4.84014712308505
2152.694823,4.942733312695621
2168.294137,5.045444425836362
2184.00649,5.148171558773661
2199.832702,5.250805814966808
2215.773596,5.3532382788881145
2231.830005,5.455360060982295
2248.002765,5.55706225226478
2264.29272,5.658235956003419
2280.700718,5.758772262343384
2297.227616,5.858562278921172
2313.874274,5.9574970939182945
2330.641561,6.055471297478995
2347.530351,6.152393413432924
2364.541523,6.248175443587082
2381.675966,6.342729410174735
2398.934572,6.435967316127997
2416.31824,6.527801167722798
2433.827878,6.6181429842499595
2451.464399,6.7069047763394485
2469.22872,6.793998541866764
2487.121769,6.879336300399275
2505.144479,6.962830062676403
2523.297789,7.044391835965543
