frequency,raw
20.0,-3.87625878619447
20.2,-3.8389147608480934
20.4,-3.802431331235302
20.61,-3.7650204325878844
20.81,-3.7302179851259063
21.02,-3.6945160232849497
21.23,-3.659647879829027
21.44,-3.6255868920223526
21.66,-3.590741763268822
21.87,-3.5582546220879614
22.09,-3.525005267159996
22.31,-3.4925332062256813
22.54,-3.4593889690293866
22.76,-3.4284296056319645
22.99,-3.396815088211481
23.22,-3.3659442968566067
23.45,-3.3357927824437414
23.69,-3.305071803437993
23.92,-3.2763180619630883
24.16,-3.2470074641471878
24.4,-3.218381609167297
24.65,-3.1892666628990707
24.89,-3.1619692521138267
25.14,-3.1341917088976903
25.39,-3.107062418430026
25.65,-3.0795121711170474
25.91,-3.052615913882072
26.16,-3.027349825058895
26.43,-3.000695889844936
26.69,-2.975629625852873
26.96,-2.9502011644033272
27.23,-2.9253647432554786
27.5,-2.901099757013366
27.77,-2.8773864319138727
28.05,-2.8533572333750907
28.33,-2.8298805934761435
28.62,-2.806127237162295
28.9,-2.7837160861422032
29.19,-2.7610270064064637
29.48,-2.7388506912649335
29.78,-2.716429779620103
30.08,-2.694518572689137
30.38,-2.673098443691253
30.68,-2.652151536820068
30.99,-2.630985364239295
31.3,-2.6102878824745517
31.61,-2.59004068017372
31.93,-2.56959373619471
32.24,-2.5502074491628948
32.57,-2.530007921643521
32.89,-2.5108338933848717
33.22,-2.4914693919109
33.55,-2.4725028032380565
33.89,-2.453360204814775
34.23,-2.434605191965808
34.57,-2.4162212513486923
34.92,-2.3976675614532925
35.27,-2.3794739022674056
35.62,-2.3616245444352653
35.97,-2.3441044545560925
36.33,-2.3264121721851865
36.7,-2.30855988186303
37.06,-2.2914979687303143
37.43,-2.2742640826544873
37.81,-2.2568683373814786
38.19,-2.2397660826491688
38.57,-2.22294337342688
38.95,-2.2063869010707555
39.34,-2.189658247854665
39.74,-2.172764340152971
40.14,-2.1561240891177524
40.54,-2.139724644093612
40.94,-2.1235537536978195
41.35,-2.107203565510673
41.76,-2.091069236247473
42.18,-2.074753262545904
42.6,-2.0586401080807195
43.03,-2.042341789913055
43.46,-2.026232991795094
43.9,-2.00993444859478
44.33,-1.9941764897290202
44.78,-1.9778549764958095
45.23,-1.9616961511999707
45.68,-1.945689844365729
46.13,-1.9298263886557803
46.6,-1.9134004524265005
47.06,-1.8974556237029634
47.53,-1.8812893685051273
48.01,-1.864904272853788
48.49,-1.8486549497009048
48.97,-1.832553742455805
49.46,-1.8162818602199942
49.96,-1.7998613204143197
50.46,-1.783637350919439
50.96,-1.7676205465968808
51.47,-1.7515070498613268
51.99,-1.735320150349682
52.51,-1.7193876431900352
53.03,-1.7037183687057174
53.56,-1.68802709425769
54.1,-1.6723379795692825
54.64,-1.6569575787337814
55.18,-1.6418930030135133
55.74,-1.6266110190936514
56.29,-1.6119457450432717
56.86,-1.597112826329532
57.42,-1.5829080392661712
58.0,-1.5685855943889586
58.58,-1.5546644388491875
59.16,-1.5411488887121902
59.76,-1.5275981620457717
60.35,-1.514704098911426
60.96,-1.5018253496437914
61.57,-1.4894093576833485
62.18,-1.4774585060148997
62.8,-1.4657903833309467
63.43,-1.4544299881804348
64.07,-1.4434024195264301
64.71,-1.4328929431645678
65.35,-1.4229020732710818
66.01,-1.4131423132978127
66.67,-1.4039340239345546
67.33,-1.3952766399661027
68.01,-1.3869321665765704
68.69,-1.379170236864983
69.37,-1.371989230925441
70.07,-1.3652018100231957
70.77,-1.3590255953818016
71.48,-1.3533828036373279
72.19,-1.3483630736114958
72.91,-1.34390559127539
73.64,-1.3400332164066788
74.38,-1.336762843633527
75.12,-1.334119336990438
75.87,-1.3320419684418974
76.63,-1.330517692998986
77.4,-1.3295326519382116
78.17,-1.329074846853129
78.95,-1.3291136877460343
79.74,-1.3296342037944526
80.54,-1.3306207623053274
81.35,-1.3320571093825908
82.16,-1.3339012262082692
82.98,-1.336151830140431
83.81,-1.3387919960135046
84.65,-1.3418043100174413
85.5,-1.3451709059407615
86.35,-1.348828843693277
87.22,-1.352845761796427
88.09,-1.357110921219015
88.97,-1.3616504748321483
89.86,-1.366445610717602
90.76,-1.371477239816095
91.66,-1.3766675546979428
92.58,-1.3821125437149837
93.51,-1.387735631818142
94.44,-1.3934549650554728
95.39,-1.399373677451611
96.34,-1.405347484464743
97.3,-1.4114187214658291
98.28,-1.417631093746125
99.26,-1.4238378930646907
100.25,-1.4300826763793515
101.25,-1.436345625865004
102.27,-1.4426685312471959
103.29,-1.448907459532047
104.32,-1.4551049857582714
105.37,-1.461299757573941
106.42,-1.46735399838578
107.48,-1.4733077640482581
108.56,-1.4791952412273441
109.64,-1.484887936473187
110.74,-1.4904717506505873
111.85,-1.4958735560582133
112.97,-1.5010740390432142
114.1,-1.5060581336527104
115.24,-1.5108271708316494
116.39,-1.51538658974835
117.55,-1.5197418541097327
118.73,-1.5239329837895257
119.92,-1.5279271261469487
121.12,-1.5317300220519041
122.33,-1.5353474082998704
123.55,-1.5387850131656637
124.79,-1.5420742819158224
126.03,-1.5451679180043802
127.29,-1.5481216511282343
128.57,-1.5509369076433095
129.85,-1.5535755776631441
131.15,-1.5560848211162777
132.46,-1.558449279080104
133.79,-1.5606911217181614
135.12,-1.5627825205694308
136.48,-1.5647749682974
137.84,-1.5666288241499835
139.22,-1.5683773052915397
140.61,-1.5700122068934872
142.02,-1.5715498795679128
143.44,-1.5729840497135559
144.87,-1.574320570535572
146.32,-1.5755735173481036
147.78,-1.5767390037712605
149.26,-1.5778298509958844
150.75,-1.5788435403566408
152.26,-1.5797917959685877
153.78,-1.5806732611991159
155.32,-1.5814987133912863
156.88,-1.5822725379443903
158.44,-1.582990383773667
160.03,-1.5836711028912263
161.63,-1.5843106948329626
163.24,-1.5849145963040787
164.88,-1.5854950216088792
166.53,-1.5860496506336526
168.19,-1.5865837815650954
169.87,-1.5871056549221543
171.57,-1.5876201390915865
173.29,-1.5881321665623882
175.02,-1.5886437692005662
176.77,-1.5891604704251174
178.54,-1.5896751016369097
180.32,-1.590175259790679
182.13,-1.5906568835770711
183.95,-1.591104982470126
185.79,-1.5915126286227046
187.65,-1.5918701167281555
189.52,-1.5921663189120159
191.42,-1.5923947001532854
193.33,-1.5925432055724182
195.27,-1.592603690654426
197.22,-1.5925658999187298
199.19,-1.5924208088431826
201.18,-1.592158871982892
203.19,-1.5917705824579051
205.23,-1.59124356076888
207.28,-1.5905735391731388
209.35,-1.589748921300993
211.44,-1.5887604307991798
213.56,-1.5875929619315439
215.69,-1.5862483823235856
217.85,-1.5847049742988777
220.03,-1.5829596201538125
222.23,-1.5810033993512018
224.45,-1.578827496613906
226.7,-1.5764119979955713
228.96,-1.5737697634032088
231.25,-1.570868892986803
233.57,-1.5676980111399113
235.9,-1.5642761525326794
238.26,-1.5605657556711963
240.64,-1.556572923309409
243.05,-1.5522713366818486
245.48,-1.5476694060989191
247.93,-1.5427594438929548
250.41,-1.537512190121993
252.92,-1.531916840164669
255.45,-1.5259866794906267
258.0,-1.5197145564461942
260.58,-1.5130671251766397
263.19,-1.5060339969314143
265.82,-1.4986336202873676
268.48,-1.490829491355069
271.16,-1.4826488931648336
273.87,-1.4740841128741098
276.61,-1.4651626833897993
279.38,-1.4559124629458422
282.17,-1.446396022755324
284.99,-1.4366084107167716
287.84,-1.4265778926855
290.72,-1.4163329183617481
293.63,-1.4059020863363088
296.57,-1.3953141104355935
299.53,-1.3846338707733152
302.53,-1.3738179722986026
305.55,-1.3629671897112956
308.61,-1.3520384549230042
311.69,-1.3411318411012103
314.81,-1.3302052309363968
317.96,-1.319322896524059
321.14,-1.3085134236374072
324.35,-1.297805267312878
327.59,-1.2872267305598957
330.87,-1.2767744916711588
334.18,-1.266509719167697
337.52,-1.2564603438626658
340.9,-1.2466254783285344
344.3,-1.2370908128884341
347.75,-1.2278012164182035
351.23,-1.218841099607907
354.74,-1.2102373938277007
358.28,-1.2020167069994798
361.87,-1.1941629326479293
365.49,-1.186750059095282
369.14,-1.179803943214925
372.83,-1.1733332882846
376.56,-1.1673678730049353
380.33,-1.1619373411353278
384.13,-1.157083121942628
387.97,-1.1528191849688136
391.85,-1.1491745067784578
395.77,-1.1461778439130899
399.73,-1.1438577125876845
403.72,-1.1422454902027146
407.76,-1.141361044619463
411.84,-1.141237020019386
415.96,-1.1418914636376571
420.12,-1.1433048171364601
424.32,-1.1454479662430006
428.56,-1.148291609909619
432.85,-1.151815227076613
437.18,-1.1559830371803326
441.55,-1.1607650989589728
445.96,-1.166131422045497
450.42,-1.1720658393371306
454.93,-1.1785413716414248
459.48,-1.1855147918974294
464.07,-1.192955698153363
468.71,-1.2008511788060454
473.4,-1.209173117898233
478.13,-1.2178743957706726
482.91,-1.22694393508823
487.74,-1.2363530300478676
492.62,-1.246072776341918
497.55,-1.2560741068770296
502.52,-1.2663071067941714
507.55,-1.2767837164786484
512.62,-1.2874330586744567
517.75,-1.2981885995553315
522.93,-1.3086042465625412
528.16,-1.318176518050971
533.44,-1.3264033023913226
538.77,-1.3327842801549457
544.16,-1.336826315145418
549.6,-1.3380174458172744
555.1,-1.3358554412769121
560.65,-1.3298413898353507
566.25,-1.3194851849006315
571.92,-1.304238213773588
577.64,-1.283837819216853
583.41,-1.2587705609526347
589.25,-1.2296084285710922
595.14,-1.1971116866978604
601.09,-1.1618953063079445
607.1,-1.1246229376130326
613.17,-1.0859592967467144
619.3,-1.0465694810292945
625.5,-1.0070551954548383
631.75,-0.9682086916227544
638.07,-0.9304451283709131
644.45,-0.8938659825473085
650.89,-0.8583840972807386
657.4,-0.8238601227202692
663.98,-0.7902121526113548
670.62,-0.75740593315659
677.32,-0.7253533217745655
684.1,-0.6938748476912323
690.94,-0.6629791692135528
697.85,-0.6325345881468443
704.83,-0.6024561030642045
711.87,-0.572700300492056
718.99,-0.543097228081836
726.18,-0.5136038867678876
733.44,-0.48413458473263804
740.78,-0.4545635026602002
748.19,-0.42484555024274406
755.67,-0.39489507333556634
763.23,-0.3645865593457254
770.86,-0.33387473483278185
778.57,-0.3026340275587007
786.35,-0.27081990155670793
794.22,-0.2383301505465279
802.16,-0.2054871035521603
810.18,-0.1725543393090268
818.28,-0.13983662663943766
826.46,-0.10763851432159523
834.73,-0.07622686493355436
843.08,-0.0459458910545327
851.51,-0.01709878932726973
860.02,0.010012567448172012
868.62,0.03511562240020152
877.31,0.05790250756345931
886.08,0.07804440111280313
894.94,0.09526290703675945
903.89,0.10925270662899354
912.93,0.11970958362467006
922.06,0.12633068093310124
931.28,0.128814744825751
940.59,0.1268623567826348
950.0,0.12016646100823003
959.5,0.10843096981839236
969.09,0.0913626322658705
978.78,0.06864454861194952
988.57,0.04009530790262102
998.46,0.006032175735023637
1008.44,-0.03305945662571496
1018.53,-0.07681207807029473
1028.71,-0.12469207597600525
1039.0,-0.17634467147085148
1049.39,-0.23127455781265222
1059.88,-0.28903140579527586
1070.48,-0.3492225116375193
1081.19,-0.41140137697381585
1092.0,-0.47506068381756267
1102.92,-0.5398098920900692
1113.95,-0.6052002475622303
1125.09,-0.6707827395105606
1136.34,-0.7361085441940377
1147.7,-0.8007294487038713
1159.18,-0.8642526962996897
1170.77,-0.9261738888099725
1182.48,-0.9860979187664763
1194.3,-1.0435264674214144
1206.25,-1.0981064260532107
1218.31,-1.1492975651481623
1230.49,-1.1967958394997509
1242.8,-1.2406696942452102
1255.22,-1.2809798359430986
1267.78,-1.3179525976285962
1280.45,-1.3516298178702204
1293.26,-1.3822230648469662
1306.19,-1.4098134775728328
1319.25,-1.4345564935015929
1332.45,-1.4565992390659337
1345.77,-1.4760410254911118
1359.23,-1.4930448687898343
1372.82,-1.5077298320909411
1386.55,-1.5202395076263038
1400.41,-1.5306983125416922
1414.42,-1.5392535104883383
1428.56,-1.5460257756138183
1442.85,-1.5511584628213713
1457.28,-1.5547805789730773
1471.85,-1.5570269712079317
1486.57,-1.5580330453609592
1501.43,-1.5579323585905145
1516.45,-1.5567823750708796
1531.61,-1.5543387437581049
1546.93,-1.5502767160529947
1562.4,-1.5442765848641127
1578.02,-1.5360185942437825
1593.8,-1.5251766411939212
1609.74,-1.5114284539953788
1625.84,-1.494452654339227
1642.1,-1.4739290394807205
1658.52,-1.4495388508932916
1675.1,-1.4209650296346372
1691.85,-1.3878713957662276
1708.77,-1.3499368177025235
1725.86,-1.306841769188401
1743.12,-1.2582685848093478
1760.55,-1.2039017024759713
1778.15,-1.1434278931104882
1795.94,-1.076457837073824
1813.9,-1.002748462104754
1832.03,-0.921994177312608
1850.36,-0.8337426296635251
1868.86,-0.7378221794470717
1887.55,-0.6339048848053587
1906.42,-0.5221535846718504
1925.49,-0.40263821540595757
1944.74,-0.2756750969732606
1964.19,-0.14132607650347706
1983.83,0.00014835063243605795
2003.67,0.14862620960902728
2023.71,0.3039153197635578
2043.94,0.4657399199761259
2064.38,0.6340634256483261
2085.03,0.8086941558033643
2105.88,0.9893503526824339
2126.94,1.1759196142864468
2148.2,1.368112881167156
2169.69,1.5660044865775238
2191.38,1.7691197697485184
2213.3,1.9775394612304162
2235.43,2.1908740759951666
2257.78,2.4090173497987664
2280.36,2.6318666502478836
2303.17,2.8592219646735266
2326.2,3.0907809591681215
2349.46,3.326297590441402
2372.95,3.5648537505228184
2396.68,3.805489662134691
2420.65,4.04714313416216
2444.86,4.288751596093157
2469.31,4.52925313813796
2494.0,4.767587505287225
2518.94,5.002790117431944
2544.13,5.233798477311685
2569.57,5.459552302025251
2595.27,5.679078106205757
2621.22,5.891352954589159
2647.43,6.096010661718289
2673.9,6.2927229337439785
2700.64,6.48123384657904
2727.65,6.661211201515548
2754.93,6.832326660950461
2782.48,6.994255918630612
2810.3,7.146678858459775
2838.4,7.289328447454073
2866.79,7.421925829914568
2895.46,7.54409901981532
2924.41,7.6556434337156745
2953.65,7.756831654608615
2983.19,7.848035159239156
3013.02,7.929564354374681
3043.15,8.001792022986432
3073.58,8.065062336784756
3104.32,8.119739423716245
3135.36,8.166152365180434
3166.72,8.204677287026103
3198.38,8.23563882363826
3230.37,8.259415027122634
3262.67,8.276338962872986
3295.3,8.286772037063082
3328.25,8.291061324443321
3361.53,8.289560844775231
3395.15,8.28261994131607
3429.1,8.270592699943776
3463.39,8.253829585232884
3498.03,8.232677543841218
3533.01,8.207496268850203
3568.34,8.178633660228094
3604.02,8.146417471295967
3640.06,8.111058103288114
3676.46,8.07274789540436
3713.22,8.031680231947515
3750.36,7.988025271530528
3787.86,7.941999921754207
3825.74,7.8937738816535115
3864.0,7.843540708726108
3902.64,7.7914946519282235
3941.66,7.737830440138826
3981.08,7.682714923807244
4020.89,7.626225217074823
4061.1,7.5678853820105
4101.71,7.507102505773676
4142.73,7.443268735486929
4184.15,7.375807944302186
4226.0,7.304078502021236
4268.26,7.227522079725968
4310.94,7.145531062221823
4354.05,7.057495561358204
4397.59,6.9628252150534555
4441.56,6.860932088937342
4485.98,6.751414817571553
4530.84,6.634881932050284
4576.15,6.512128536606109
4621.91,6.383975940545888
4668.13,6.251217843429242
4714.81,6.114676229584434
4761.96,5.9751442406070945
4809.58,5.8334445387632705
4857.67,5.6904000758085065
4906.25,5.546774454479606
4955.31,5.403420387859464
5004.87,5.261102902690883
5054.91,5.120701788785773
5105.46,4.982955032858986
5156.52,4.848686986285571
5208.08,4.718745211706755
5260.16,4.593900000858025
5312.77,4.474951313195847
5365.89,4.362763560267391
5419.55,4.258091741571487
5473.75,4.1617581371965615
5528.49,4.074581665592891
5583.77,3.997102371064726
5639.61,3.9287341663310817
5696.0,3.868655343225554
5752.96,3.816009464732087
5810.49,3.7699625349567834
5868.6,3.7296712990424443
5927.28,3.694305173633737
5986.56,3.6630091103912465
6046.42,3.634956314642588
6106.89,3.609294659998702
6167.96,3.5851907082131986
6229.64,3.5618020146546385
6291.93,3.538290276473327
6354.85,3.513809730472742
6418.4,3.487522053154309
6482.58,3.4585894969558715
6547.41,3.426165107648062
6612.88,3.3894165706580552
6679.01,3.3474959768442165
6745.8,3.299566454506396
6813.26,3.2447848332278606
6881.39,3.182316324436225
6950.21,3.1114114075415773
7019.71,3.031766426238631
7089.91,2.9431499357393074
7160.81,2.845353224788767
7232.41,2.738170950171936
7304.74,2.621350990012135
7377.79,2.494702206505353
7451.56,2.358022625889238
7526.08,2.211052931194418
7601.34,2.05360917094503
7677.35,1.8854704536018243
7754.13,1.7063909210926458
7831.67,1.5161942827183186
7909.98,1.3146602629311255
7989.08,1.1015401342623448
8068.98,0.8766082280239751
8149.67,0.6396979879647369
8231.16,0.3905894191200766
8313.47,0.12902943115011856
8396.61,-0.14520697193821508
8480.57,-0.43227580614073513
8565.38,-0.7315606662118406
8651.03,-1.0386782094735159
8737.54,-1.348443316733749
8824.92,-1.6556344767953481
8913.17,-1.954994687366272
9002.3,-2.241303263425644
9092.32,-2.509836348103464
9183.25,-2.7578837033208763
9275.08,-2.9831503062231914
9367.83,-3.183423081146232
9461.51,-3.3564589517525145
9556.12,-3.5007451197650785
9651.68,-3.6177824487359587
9748.2,-3.7097966629704273
9845.68,-3.7790076148467873
9944.14,-3.827651478510802
10043.58,-3.8579519088484893
10144.02,-3.8721405941340676
10245.46,-3.8724445802785086
10347.91,-3.86109419479042
10451.39,-3.8403167983845843
10555.91,-3.812339925106766
10661.46,-3.7794468649240316
10768.08,-3.744099374133265
10875.76,-3.708823264856933
10984.52,-3.676134832867111
11094.36,-3.6485562077501594
11205.31,-3.6286023032827477
11317.36,-3.6187963215310397
11430.53,-3.6216552035293756
11544.84,-3.6396998127671725
11660.29,-3.675448753068465
11776.89,-3.731419066229565
11894.66,-3.80951160307769
12013.6,-3.9091254260080026
12133.74,-4.029061924869807
12255.08,-4.168096776711137
12377.63,-4.325012015233031
12501.41,-4.498603264817766
12626.42,-4.687638213493153
12752.68,-4.890912618346419
12880.21,-5.107225014459741
13009.01,-5.335339700613299
13139.1,-5.573739760045226
13270.49,-5.819631445573976
13403.2,-6.069924507386315
13537.23,-6.3214907070077
13672.6,-6.571239440299806
13809.33,-6.8160790572396985
13947.42,-7.052882040365388
14086.9,-7.2785725618076835
14227.77,-7.490024104810846
14370.04,-7.68412989251267
14513.74,-7.857808638149182
14658.88,-8.00869376751457
14805.47,-8.13739867801867
14953.52,-8.245283736305902
15103.06,-8.333722040104874
15254.09,-8.404066655117965
15406.63,-8.457683645110523
15560.7,-8.49593671378024
15716.3,-8.520185557486784
15873.47,-8.531796295580381
16032.2,-8.532129355892963
16192.52,-8.522548336377177
16354.45,-8.504453902396005
16517.99,-8.479406031196223
16683.17,-8.449000001929141
16850.01,-8.41483181405683
17018.51,-8.378502043381742
17188.69,-8.341607249728524
17360.58,-8.30574171142876
17534.18,-8.272506005058057
17709.53,-8.243493114220904
17886.62,-8.220304668572311
18065.49,-8.204534665219372
18246.14,-8.197547590126412
18428.6,-8.199768806610239
18612.89,-8.211391045715882
18799.02,-8.23260601398066
18987.01,-8.26360560689465
19176.88,-8.304581995484067
19368.65,-8.355727578845768
19562.33,-8.417231506547553
19757.96,-8.489292838646241
19955.54,-8.572097000381968
